Time,Temperature (C),Gas (ohms),Humidity (%),Pressure (hPa),Altitude (m),PM10 Standard (mirogram/m^3),PM25 Standard (mirogram/m^3),PM100 Standard (mirogram/m^3),
1676507382.1427317,43.783515625,34501,2.463569849639119,1011.634398823498,13.45967564666353,0,0,0,
1676507383.329209,43.80109375,17333,2.458998623070817,1011.6371464635876,13.436770112950073,0,0,0,
1676507384.5223951,43.82765625,25908,2.42611082959734,1011.6452093887416,13.369554320881358,0,0,0,
1676507385.7155128,43.8559765625,34333,2.412170798452243,1011.6470080216111,13.354560251910474,0,0,0,
1676507386.9040022,43.8774609375,42527,2.4029004415710586,1011.6451145401344,13.370345014557838,0,1,1,
1676507388.094351,43.892890625,50158,2.412505136996982,1011.6498605038195,13.330780949265845,0,1,1,
1676507389.2871258,43.9126171875,56772,2.4647636855071253,1011.6505946228617,13.324661081527996,0,1,1,
1676507390.4805982,43.9153515625,62630,2.564290094365131,1011.6513434316932,13.318418758385782,0,0,0,
1676507391.6741252,43.8989453125,68642,2.6352604484319633,1011.6486658309966,13.340740158713968,0,0,0,
1676507392.8677568,43.883515625,73357,2.7062823346551546,1011.6402890155567,13.410572482237878,0,0,0,
1676507394.0615273,43.8270703125,77822,2.810168245581421,1011.6315623146223,13.483322082426213,0,0,0,
1676507395.2544467,43.7743359375,81664,2.9474468408835035,1011.6178760163031,13.597418081484905,0,0,0,
1676507396.447782,43.69953125,85817,3.02272818079215,1011.6141947078929,13.62810756892192,0,0,0,
1676507397.641365,43.6321484375,89456,3.03148242566729,1011.6096772694357,13.665767637085178,0,0,0,
1676507398.8339067,43.555390625,93006,3.0258576627258873,1011.6064478395073,13.692690179458326,0,0,0,
1676507400.0272434,43.4419140625,94963,2.996055927316657,1011.6132871244985,13.635673715850249,0,0,0,
1676507401.2207692,43.3266796875,97883,3.0232769971645563,1011.6081760395444,13.678282817259156,0,0,0,
1676507402.4137797,43.1971875,101291,2.998071526683272,1011.6037233316478,13.715403430624294,0,0,0,
1676507403.6067052,43.0301953125,104102,2.9724804548803583,1011.6061480840333,13.695189131607775,0,0,0,
1676507404.7992892,42.8376171875,107621,2.932426001097079,1011.6109052061655,13.65553080878912,0,1,1,
1676507405.9923303,42.650703125,109365,2.9067083565987146,1011.608267009892,13.67752443178958,0,0,0,
1676507407.1858933,42.472578125,111386,2.8574732160679894,1011.6159520846264,13.613457062445375,0,0,0,
1676507408.37959,42.2872265625,114097,2.775182941223032,1011.6100738648778,13.662461374885378,0,0,0,
1676507409.5725863,42.0786328125,116701,2.7352857576091036,1011.6047421136242,13.706910202526522,0,0,0,
1676507410.766418,41.8614453125,117596,2.7472246725733824,1011.608939710223,13.67191638463529,0,0,0,
1676507411.9591913,41.6346875,118504,2.7778967660046803,1011.6029679051925,13.721701160562015,0,0,0,
1676507413.152974,41.417890625,121141,2.8604581843997945,1011.6091555820431,13.670116743899426,0,0,0,
1676507414.346808,41.199921875,122638,2.886412130259802,1011.5969646678693,13.771748215985042,0,0,0,
1676507415.5392199,40.99171875,124172,2.9312726018907633,1011.5984602039584,13.759280390951627,0,0,0,
1676507416.7320478,40.7727734375,125278,2.93831899043285,1011.6005455221214,13.741895758836089,0,0,0,
1676507417.9247212,40.576875,127455,2.964418435052867,1011.6033640866465,13.718398331885185,0,0,0,
1676507419.1175127,40.399140625,128132,3.0189052315341542,1011.6027312724884,13.723673886623885,0,0,0,
1676507420.3095489,40.2286328125,129211,3.0734367348482676,1011.5973372285008,13.768642291034158,0,0,0,
1676507421.5023835,40.0524609375,131017,3.1325723384875492,1011.6061578301878,13.695107881456622,0,0,0,
1676507422.69446,39.8942578125,132561,3.158963962771088,1011.6040698112017,13.712514951300571,0,0,0,
1676507423.886482,39.6883984375,134248,3.189478971095262,1011.6134985366344,13.633911259926835,0,0,0,
1676507425.0791345,39.471796875,133822,3.1634773182937725,1011.6126301264035,13.641150840339144,0,0,0,
1676507426.265987,39.2423046875,135979,3.132684810124864,1011.610599361245,13.658080517340892,0,0,0,
1676507427.4592214,39.006171875,137307,3.1159315757668424,1011.6156423753772,13.616038975953416,1,1,1,
1676507428.6524096,38.796015625,139578,3.0948218010708546,1011.6118804949868,13.64740021446787,1,1,1,
1676507429.846098,38.563984375,140508,3.0688275285579127,1011.6248543804942,13.539242703963378,1,1,1,
1676507431.0396256,38.3239453125,141569,3.094186443771931,1011.6228481370339,13.555967789567466,1,1,1,
1676507432.2325444,38.05734375,142646,3.1238812426065907,1011.6226855012609,13.55732360686235,1,1,1,
1676507433.4247372,37.7503125,143739,3.167072728040419,1011.6180586659377,13.595895412266314,1,1,2,
1676507434.617137,37.464765625,144850,3.215109369438946,1011.6171530528565,13.603445110160733,1,1,2,
1676507435.8096008,37.19328125,144974,3.2865633113872152,1011.6098495667305,13.664331261313587,0,0,1,
1676507437.0017846,36.939765625,145978,3.35349337011025,1011.6097094051621,13.665499733970206,0,0,1,
1676507438.1956365,36.6653515625,146612,3.410775143512103,1011.6113901191321,13.651488281797482,0,0,1,
1676507439.3889537,36.398359375,148810,3.4727398577218898,1011.6301179592109,13.495362910589927,1,1,2,
1676507440.586847,36.0315625,147123,3.524057889040858,1011.6268981602341,13.522204724090086,1,1,2,
1676507441.7790995,35.6696484375,148941,3.5939630069026607,1011.6220102133797,13.562953163513004,1,1,2,
1676507442.9705777,35.3212109375,149601,3.682544838849138,1011.609692560285,13.665640163189925,1,1,2,
1676507444.1628215,34.93,150939,3.765782315214321,1011.6063051741186,13.693879528740366,1,2,2,
1676507445.3560424,34.6024609375,152301,3.891619302772225,1011.6052446754928,13.7027205230051,1,2,2,
1676507446.548938,34.3305859375,152577,4.01348709523769,1011.6027486832473,13.723528739058192,1,2,2,
1676507447.7421055,34.0805859375,152992,4.0983629022276915,1011.5799700403993,13.913428253829354,1,2,2,
1676507448.9360287,33.85109375,154250,4.197448049382523,1011.5776957866972,13.932388294938754,1,2,2,
1676507450.1297753,33.667109375,154392,4.2925165604503075,1011.5704234136382,13.993016983299828,1,2,2,
1676507451.3237526,33.4993359375,153969,4.387816111098996,1011.564307951348,14.044000952494013,1,1,1,
1676507452.5158246,33.3216015625,154675,4.4922774512117885,1011.5633270322252,14.052178795801433,1,1,1,
1676507453.7085056,33.164765625,155387,4.564414424578841,1011.5568607850395,14.10608753574973,1,1,1,
1676507454.9012759,32.977265625,156977,4.580076579757564,1011.5647414304508,14.040387074352754,1,1,1,
1676507456.0913115,32.7989453125,158600,4.623836397623362,1011.5606019163464,14.074897899953188,1,1,1,
1676507457.2840164,32.606953125,156395,4.672006787271659,1011.5555090613009,14.11735681596847,1,1,1,
1676507458.477536,32.435859375,157123,4.7531181019313715,1011.55033648499,14.16048054195474,1,1,1,
1676507459.6702206,32.2903515625,157269,4.876627087613133,1011.5438375137032,14.214662665004157,1,1,1,
1676507460.862476,32.151875,157416,4.986293646885673,1011.5468986594258,14.189141764064086,1,1,1,
1676507462.0549176,32.0157421875,158451,5.053984591882912,1011.5554671421582,14.117706294799671,1,1,1,
1676507463.2525244,31.883125,159650,5.112384198120894,1011.5661032164902,14.029033988978668,1,1,1,
1676507464.4458308,31.7645703125,158749,5.142989105129126,1011.5692435131531,14.002853670749166,1,1,1,
1676507465.638688,31.599140625,159953,5.135390161590906,1011.5672940982145,14.019105727357756,1,1,1,
1676507466.8326886,31.421015625,160561,5.169577679608408,1011.5694904419714,14.000795054325785,1,1,1,
1676507468.0248804,31.24171875,161638,5.203720057500063,1011.5625104058107,14.058986949001348,1,1,1,
1676507469.2174196,31.067890625,161793,5.256601802098143,1011.5678562305565,14.01441928963047,1,2,2,
1676507470.413252,30.8708203125,160561,5.318368063737265,1011.5636732938384,14.049292040033489,1,2,2,
1676507471.609896,30.6571484375,160561,5.37512872797511,1011.5642881585799,14.044165963136823,1,2,2,
1676507472.8027165,30.45421875,164154,5.436716149391744,1011.562641528021,14.057893792667588,1,2,2,
1676507473.995466,30.267890625,161021,5.507913711587885,1011.5594277851183,14.084686566736078,1,2,2,
1676507475.1880329,30.080390625,161948,5.588399180860307,1011.5541476724906,14.12870668592604,1,2,2,
1676507476.3799515,29.9008984375,163359,5.655006687397758,1011.5617729990583,14.065134657642055,1,2,2,
1676507477.5730302,29.718671875,162416,5.730876678164778,1011.564787229746,14.040005249629814,1,2,2,
1676507478.7649658,29.547578125,163043,5.816286923511094,1011.5573993865469,14.101597234551706,1,2,2,
1676507479.9583445,29.3610546875,163201,5.88735879799465,1011.5584354289174,14.092959792396261,1,2,2,
1676507481.1576486,29.1583203125,163676,5.962753287185102,1011.5576984902266,14.099103618878928,1,2,2,
1676507482.3510485,28.8815625,164634,6.031940945638829,1011.5654183415355,14.034743727149413,1,2,2,
1676507483.5432303,28.62296875,164474,6.129482357123263,1011.5563485755764,14.11035780922781,1,2,2,
1676507484.7352421,28.3821484375,164474,6.2413750560047605,1011.5618454773556,14.064530410974417,1,2,2,
1676507485.9277856,28.1270703125,165117,6.343583017332563,1011.5614921712762,14.067475900222341,1,2,2,
1676507487.1220078,27.889375,164474,6.46952322034971,1011.5697822046707,13.99836266365322,1,2,2,
1676507488.3162365,27.6598828125,165279,6.572220286229126,1011.5752903401157,13.952442104872437,1,2,2,
1676507489.5084465,27.437421875,166093,6.675047963847952,1011.5849793506163,13.871666663782703,1,2,2,
1676507490.7010515,27.2571484375,165441,6.760055503110583,1011.5732197501912,13.969704301211028,1,2,2,
1676507491.8932188,27.0753125,165604,6.854391663788274,1011.5676092655863,14.01647821014098,1,2,2,
1676507493.0864599,26.9262890625,166420,6.940093896231498,1011.5695789203595,14.00005742054634,1,2,2,
1676507494.279201,26.7899609375,166749,7.030786389655311,1011.5763173531609,13.943880062412074,1,2,2,
1676507495.474189,26.64171875,166420,7.0930482313164624,1011.5776038624498,13.933154651461924,1,2,2,
1676507496.6667485,26.5200390625,166749,7.174705682898314,1011.567496879437,14.017415161562521,1,2,2,
1676507497.8599062,26.3919140625,166584,7.2515246720049005,1011.5573738560923,14.101810080980359,1,2,2,
1676507499.053758,26.271015625,166914,7.300325823237094,1011.5625541527324,14.058622234083922,1,2,2,
1676507500.2466862,26.1337109375,167744,7.3581240520390105,1011.5602182801515,14.07809625257291,1,2,2,
1676507501.4401305,26.013203125,167411,7.43042419538478,1011.5588302464774,14.089668216705219,1,2,2,
1676507502.6332054,25.90265625,167245,7.498270182571581,1011.550744890288,14.157075663869183,1,2,2,
1676507503.826607,25.80109375,168245,7.547523697908149,1011.555568621867,14.116860261059909,1,2,2,
1676507505.0195496,25.6751171875,167245,7.586761342267444,1011.5556288841678,14.11635785583308,1,1,1,
1676507506.2122064,25.5579296875,167744,7.626206420075721,1011.5470827014325,14.187607400090293,1,1,1,
1676507507.404785,25.439375,167910,7.693845613225742,1011.5397654510863,14.248611719632198,1,1,1,
1676507508.5990448,25.30578125,169428,7.723450668867155,1011.5359529996413,14.28039647909856,0,1,1,
1676507509.792339,25.167890625,170455,7.79059249827349,1011.5391256902761,14.25394545776648,0,1,1,
1676507510.9858222,25.0372265625,170973,7.862624036848393,1011.5276129291618,14.349928754398114,0,1,1,
1676507512.1787894,24.89640625,170800,7.939109405691306,1011.5205225950122,14.409042177003595,0,1,1,
1676507513.372137,24.7708203125,170973,8.011277240032577,1011.5189559351759,14.42210375406155,0,1,1,
1676507514.5647898,24.6298046875,171494,8.087763561985359,1011.5254818016234,14.367696322203416,0,1,1,
1676507515.7577636,24.4940625,171668,8.169108071166953,1011.5159024421986,14.447561423078515,1,1,1,
1676507516.9507978,24.36046875,172370,8.250518452308697,1011.5221046248328,14.395852473734129,1,1,1,
1676507518.1435575,24.235078125,171668,8.327436162584295,1011.525842077392,14.36469264055335,1,1,1,
1676507519.3354964,24.1216015625,171843,8.423581304345497,1011.529702767761,14.332505448842891,1,1,2,
1676507520.527971,24.0110546875,171494,8.500932135062286,1011.529512449122,14.334092163375587,1,1,2,
1676507521.71983,23.903046875,172370,8.573639042491466,1011.5246358479335,14.374749188436812,1,1,2,
1676507522.9116268,23.80265625,172546,8.656031958230393,1011.5181414808144,14.428894040181254,0,1,1,
1676507524.1038563,23.7196484375,173077,8.738933963617598,1011.5084861521414,14.50939298782991,0,1,1,
1676507525.2960649,23.6544140625,172546,8.808154976388199,1011.510410561851,14.493348641640672,0,1,1,
1676507526.488676,23.5930859375,172723,8.868031652260239,1011.4993782910736,14.585328128119187,1,1,2,
1676507527.6804962,23.5165234375,171494,8.922752475093425,1011.5037624962673,14.54877554312163,1,1,2,
1676507528.87291,23.4485546875,173969,8.991956408694803,1011.5028923556284,14.55603018644317,1,1,2,
1676507530.0652318,23.36515625,173255,9.041759838648897,1011.5047840475247,14.540258547055746,1,2,2,
1676507531.2578642,23.283515625,174870,9.105857622358467,1011.5060161765269,14.529985906970571,1,2,2,
1676507532.449816,23.2247265625,172900,9.165883295183802,1011.5113740298349,14.485315946765153,1,2,2,
1676507533.6409314,23.1626171875,172723,9.225830322197927,1011.505980569771,14.530282771350597,1,2,2,
1676507534.832597,23.10734375,173611,9.28124149443182,1011.5082945534069,14.51099040183855,1,2,2,
1676507536.0245256,23.0587109375,173611,9.341618788526569,1011.5039320804399,14.547361665732478,1,2,2,
1676507537.2168596,22.9971875,173790,9.382607209529452,1011.4994581390608,14.58466240759953,1,2,2,
1676507538.4094374,22.9423046875,173433,9.43807175278496,1011.5111631476904,14.487074128085576,1,2,2,
1676507539.6018076,22.8962109375,174689,9.489053643425402,1011.5250039975044,14.371679859456236,1,2,2,
1676507540.794492,22.8481640625,174689,9.54475348977901,1011.5233171404851,14.385743496285018,2,2,3,
1676507541.9866462,22.8096875,173790,9.591230483637974,1011.5285748435444,14.34190912274863,2,2,3,
1676507543.1786687,22.7778515625,174689,9.628389211476824,1011.5289318850648,14.33893241295184,2,2,3,
1676507544.371252,22.7700390625,175052,9.690124870030724,1011.5371698978353,14.270251076036052,2,3,3,
1676507545.5638375,22.7645703125,174870,9.723343451825475,1011.5369609630602,14.27199298563864,2,3,3,
1676507546.7558284,22.7649609375,174870,9.742437549328535,1011.5323312521251,14.310591412151805,2,3,3,
1676507547.9486613,22.767109375,175416,9.75681736620265,1011.5376228751927,14.266474560609076,2,3,3,
1676507549.141327,22.7798046875,175416,9.790614990100943,1011.5497194437946,14.165624821226734,2,3,3,
1676507550.334119,22.8040234375,175965,9.81523117503581,1011.5508936667186,14.155835313905198,2,3,3,
1676507551.526386,22.8321484375,176332,9.806547302749282,1011.5479451013781,14.180417547737617,2,3,3,
1676507552.718445,22.8346875,176517,9.820951326750562,1011.553879228746,14.130944697254543,2,3,3,
1676507553.911148,22.8430859375,176332,9.830762173273422,1011.553632701821,14.132999988819373,2,3,3,
1676507555.1031287,22.836640625,177258,9.84489268006512,1011.5518190463858,14.148120421589809,2,3,3,
1676507556.2957044,22.811640625,176702,9.853673754171542,1011.5599085171962,14.08067872901077,2,3,3,
1676507557.487678,22.801484375,177632,9.886802746753133,1011.5748375436567,13.956216998306157,2,3,3,
1676507558.6803584,22.7815625,178383,9.890963238409052,1011.6123653505056,13.643358169553704,2,3,3,
1676507559.8723269,22.7348828125,178194,9.922964955215777,1011.6216836283768,13.565675749777222,2,3,3,
1676507561.0661623,22.6383984375,178194,9.943858271104816,1011.6193311427949,13.585287341701934,2,3,3,
1676507562.2595584,22.518671875,179140,9.987917907433967,1011.6120698080921,13.645821987271491,1,2,3,
1676507563.4526255,22.3864453125,178761,10.031580083215648,1011.6034947501477,13.717309035389924,1,2,3,
1676507564.6455147,22.2290234375,178761,10.1031278056352,1011.6060507537654,13.696000538708802,1,2,3,
1676507565.8391101,22.0753125,178950,10.165224165129857,1011.6146045313662,13.624691042132746,1,2,3,
1676507567.0312138,21.9534375,176702,10.2857522729182,1011.6351050359864,13.453788344597143,1,2,3,
1676507568.223892,21.851484375,177072,10.435748294794044,1011.6409591804003,13.404985715660706,1,2,3,
1676507569.4173555,21.7696484375,175781,10.596149854400009,1011.6412969668266,13.402169791828634,1,2,3,
1676507570.6094766,21.705390625,174509,10.742907881958763,1011.6372239195374,13.436124406886679,1,2,3,
1676507571.8007886,21.6567578125,174149,10.866300052427338,1011.6360652568706,13.44578352066604,1,2,3,
1676507572.9931822,21.6270703125,174149,10.980822631445879,1011.6380371671225,13.429344828166727,1,3,3,
1676507574.1874876,21.6165234375,175234,11.08164920489179,1011.6311886687253,13.48643696957579,1,3,3,
1676507575.3809867,21.6219921875,175598,11.139701569977817,1011.6296717908949,13.49908238299482,1,3,3,
1676507576.5742977,21.638984375,175781,11.207839642813939,1011.6173136705827,13.602106110430567,1,2,3,
1676507577.7669556,21.665546875,177072,11.2473826596278,1011.6172093005255,13.602976197926994,1,2,3,
1676507578.9595404,21.69640625,176702,11.291927316633048,1011.6136524697131,13.632627983422728,1,2,3,
1676507580.152328,21.733125,177072,11.317368226653805,1011.6232512563132,13.552607176106795,1,2,2,
1676507581.344858,21.77375,178383,11.342956930224132,1011.6305053551997,13.492133393488416,1,2,2,
1676507582.5405388,21.813984375,177445,11.354034919621945,1011.6318451593725,13.480964156769362,1,2,2,
1676507583.735935,21.85109375,176887,11.350497359964063,1011.6315411997668,13.483498105722328,1,2,2,
1676507584.9312809,21.88703125,177445,11.34208210459072,1011.634566254879,13.458279863743218,1,2,2,
1676507586.1249845,21.924140625,177258,11.328871003927876,1011.6342502973472,13.460913827276439,1,2,2,
1676507587.3181424,21.9692578125,177445,11.403025154202467,1011.6348278244893,13.456099302794257,3,3,3,
1676507588.5099618,22.0161328125,177632,11.535459852355734,1011.6365353588038,13.441864546279824,3,3,3,
1676507589.7022612,22.065546875,176517,11.64392188169886,1011.6301252800017,13.495301880992741,3,3,3,
1676507590.8947275,22.121015625,175781,11.767321259128318,1011.6248933195941,13.538918087702735,5,6,6,
1676507592.0866907,22.1758984375,175052,11.900613284801715,1011.615170441619,13.619973287023745,5,6,6,
1676507593.2792246,22.235859375,175781,12.009939429088599,1011.6278396113343,13.514356321730698,5,6,6,
1676507594.4710898,22.293671875,175416,12.075442984736183,1011.6281778729906,13.511536406579083,5,6,6,
1676507595.6628287,22.35265625,175052,12.121534776799269,1011.6321863902581,13.478119497791084,5,7,7,
1676507596.8553002,22.4126171875,175416,12.162816342716585,1011.6430567601736,13.387499457321821,6,8,8,
1676507598.0472376,22.47296875,175598,12.194374505955755,1011.6387462220065,13.423433847843492,6,9,9,
1676507599.2396762,22.53546875,174870,12.226033303970718,1011.6467380998142,13.356810418485427,6,9,9,
1676507600.4324408,22.6001171875,176702,12.25779344111645,1011.6477074345203,13.348729692996868,6,9,10,
1676507601.6261008,22.663984375,174509,12.29932553966922,1011.642101318927,13.395464391499166,6,10,11,
1676507602.8191478,22.72921875,174870,12.350727387862257,1011.6299384835154,13.496859105639166,6,11,11,
1676507604.0122085,22.791328125,175234,12.3579883870609,1011.6266733053748,13.524079226366636,5,10,11,
1676507605.2054546,22.854609375,174870,12.375090219249739,1011.6218025677507,13.564684207820472,4,8,9,
1676507606.395175,22.918671875,175052,12.357949725184126,1011.6269872614262,13.521461932198353,4,9,9,
1676507607.5875823,22.981171875,175965,12.345644415836544,1011.6313427245411,13.48515268804762,4,9,9,
1676507608.7804193,23.041328125,175781,12.323454930006003,1011.6283105360226,13.51043046265454,3,8,8,
1676507609.9735029,23.1005078125,175781,12.281644632187305,1011.6394808181183,13.41730994862077,3,8,8,
1676507611.1665428,23.1571484375,176517,12.234849413825316,1011.6464621467817,13.359110864144437,3,8,8,
1676507612.3596394,23.214375,177258,12.192976941277184,1011.6456004627722,13.366294181251941,3,7,7,
1676507613.5516307,23.2696484375,177445,12.136363999066933,1011.6503067061226,13.327061253636018,3,7,7,
